Step,Distance,Delta Roll,Delta Pitch,Delta Yaw,Force
0,0.6678299680737702,-2.9896045372623806e-08,-9.288743163526903e-10,-1.8207295864991482e-06,0.5
1,0.6678307374643152,-4.492499670050166e-08,-1.3991785174916062e-09,-2.730650493276699e-06,0.5
2,0.6678315004001917,-6.00086430324609e-08,-1.8734394868769044e-09,-3.640271318960942e-06,0.5
3,0.6678322568139088,-7.51475433879989e-08,-2.3517043312715202e-09,-4.549588905011782e-06,0.5
4,0.667833006637267,-7.542103697133484e-08,-2.3715120478495778e-09,-4.548088335187828e-06,0.5
5,0.6678337498013406,-7.569734368217951e-08,-2.3915105229477263e-09,-4.546571970065472e-06,0.5
6,0.6678344862364883,-7.597649194224232e-08,-2.411699784321542e-09,-4.545039643755189e-06,0.5
7,0.6678352158723316,-7.625850466652652e-08,-2.432093459958651e-09,-4.543491188568894e-06,0.5
8,0.6678359386377557,-7.654341622753692e-08,-2.452682262843453e-09,-4.541926434153965e-06,0.5
9,0.6678366544608901,-7.683125433644023e-08,-2.473471577557618e-09,-4.540345209225194e-06,0.5
10,0.6678373632691137,-7.712204910248489e-08,-2.4944616039412896e-09,-4.538747340010474e-06,0.5
11,0.6678380649890405,-7.741582823683757e-08,-2.5156588756569676e-09,-4.5371326515608604e-06,0.5
12,0.6678387595465125,-7.771262628963882e-08,-2.5370565481797064e-09,-4.5355009663961e-06,0.5
13,0.667839446866588,-7.801246919569848e-08,-2.558663975138487e-09,-4.5338521060145355e-06,0.5
14,0.6678401268735384,-7.831539052816084e-08,-2.580479629976651e-09,-4.532185888894702e-06,0.5
15,0.6678407994908366,-7.862141835346393e-08,-2.602510379423606e-09,-4.530502132782388e-06,0.5
16,0.667841464641153,-7.893058864283376e-08,-2.624747036383823e-09,-4.528800652092713e-06,0.5
17,0.6678421222463375,-7.924292928507271e-08,-2.6472028624713316e-09,-4.527081260485843e-06,0.5
18,0.667842772227427,-7.95584754520462e-08,-2.6698701915961466e-09,-4.525343768868595e-06,0.5
19,0.6678434145046138,-7.987725547664581e-08,-2.6927600205173264e-09,-4.5235879868377186e-06,0.5
20,0.6678440489972592,-8.019930719527225e-08,-2.715862679192327e-09,-4.521813720881341e-06,0.5
21,0.6678446756238694,-8.052465876318139e-08,-2.7391918622221565e-09,-4.520020776843658e-06,0.5
22,0.6678452943020957,-8.085334357588182e-08,-2.7627467424906625e-09,-4.5182089576600856e-06,0.5
23,0.6678459049487182,-8.118539920332069e-08,-2.786523201070423e-09,-4.516378063490478e-06,0.5
24,0.6678465074796378,-8.152085788637465e-08,-2.8105265170719204e-09,-4.514527893673126e-06,0.5
25,0.6678471018098773,-8.185975177710248e-08,-2.8347609426493394e-09,-4.512658245214852e-06,0.5
26,0.6678476878535562,-8.22021171131837e-08,-2.859225572970914e-09,-4.5107689120360565e-06,0.5
27,0.6678482655238911,-8.254798951057296e-08,-2.883922156637908e-09,-4.5088596863918085e-06,0.5
28,0.6678488347331837,-8.28974027200502e-08,-2.908856178152064e-09,-4.506930358627593e-06,0.5
29,0.6678493953928057,-8.32503937786555e-08,-2.9340232909902396e-09,-4.504980716157903e-06,0.5
30,0.6678499474132021,-8.360699625953317e-08,-2.959434930449589e-09,-4.503010544842923e-06,0.5
31,0.6678504907038687,-8.3967251285344e-08,-2.985081332118611e-09,-4.501019627345394e-06,0.5
32,0.6678510251733419,-8.433119225159658e-08,-3.0109696069757778e-09,-4.499007744929174e-06,0.5
33,0.6678515507292053,-8.469885779405218e-08,-3.0371002657236805e-09,-4.4969746759715434e-06,0.5
34,0.6678520672780535,-8.507028113058369e-08,-3.063483627885333e-09,-4.494920197362085e-06,0.5
35,0.6678525747255041,-8.544550551548015e-08,-3.090110489711862e-09,-4.4928440819935744e-06,0.5
36,0.6678530729761712,-8.58245628343468e-08,-3.1169943792708213e-09,-4.49074610220368e-06,0.5
37,0.6678535619336664,-8.620749767374036e-08,-3.144127175280787e-09,-4.488626025844767e-06,0.5
38,0.667854041500584,-8.659434280744449e-08,-3.171519652456212e-09,-4.486483620524951e-06,0.5
39,0.6678545115784864,-8.698514566418681e-08,-3.1991614024562413e-09,-4.4843186486343e-06,0.5
40,0.6678549720678977,-8.737993990592941e-08,-3.2270637384534956e-09,-4.482130872673906e-06,0.5
41,0.6678554228682931,-8.77787676323294e-08,-3.2552255169182593e-09,-4.479920050970421e-06,0.5
42,0.6678558638780812,-8.81816682785086e-08,-3.2836503516264774e-09,-4.477685940162956e-06,0.5
43,0.6678562949946008,-8.858868421057765e-08,-3.3123387477296264e-09,-4.475428293404526e-06,0.5
44,0.6678567161141025,-8.899985459720483e-08,-3.3412945910082923e-09,-4.473146862249422e-06,0.5
45,0.6678571271317413,-4.1817915619191123e-08,0.00017896792726873056,-4.3576853234750246e-06,0.5
46,0.6678575279415649,2.018024889416381e-07,0.0010847890647779968,-3.790568172856723e-06,0.5
47,0.6678469367780886,4.503262676536224e-07,0.0019947702868435336,-3.218776982971683e-06,0.5
48,0.6677928265866524,7.013755861429161e-07,0.002904772954505897,-2.6418942747019614e-06,0.5
49,0.6677400901035003,9.55279177894397e-07,0.0038147760225513807,-2.060728585706606e-06,0.5
50,0.6676889458605498,1.1648741277348052e-06,0.004545807686177573,-1.5901868855694448e-06,0.5
51,0.6676394163177352,1.1806448592110996e-06,0.004549989459515891,-1.5659329312356363e-06,0.5
52,0.6675915183951491,1.1943458585683687e-06,0.004550011177782882,-1.5409193245830013e-06,0.5
53,0.6675452135148074,1.2085010768991823e-06,0.00455001202553702,-1.5158376658552798e-06,0.5
54,0.6675005011440783,1.222723247717994e-06,0.004550011982396862,-1.4892815635381141e-06,0.5
55,0.6674574371662217,1.2366729433388457e-06,0.004550012060131325,-1.4594025232517184e-06,0.5
56,0.6674159617606706,1.2517185246530004e-06,0.0045500124530684135,-1.4324897520401336e-06,0.5
57,0.6673760741434956,1.2673776645932833e-06,0.004550012688655969,-1.407683342202759e-06,0.5
58,0.6673378336948605,1.2831322871775796e-06,0.004550012312390201,-1.3819407869375412e-06,0.5
59,0.6673012200842048,1.2998820397847055e-06,0.00455001145455192,-1.3604838809744279e-06,0.5
60,0.667266194416809,1.3001633137221804e-06,0.004549765377676107,-1.3592046474553146e-06,0.5
61,0.6672328215117612,1.3067566451141488e-06,0.0045494770439232085,-1.4055099233578617e-06,0.5
62,0.6672013049693705,1.3310580406766803e-06,0.004549465153082089,-1.4577789410941123e-06,0.5
63,0.6671720751326485,1.3554983085306562e-06,0.0045494588955822205,-1.5111277356094632e-06,0.5
64,0.6671445506251412,1.3790416010017738e-06,0.0045494535848999125,-1.5608226928032211e-06,0.5
65,0.6671186428085264,1.4192719503647313e-06,0.004549692667213565,-1.593008089417758e-06,0.5
66,0.6670943512944768,1.452650117439447e-06,0.004549974430129822,-1.574747276156252e-06,0.5
67,0.6670717020984157,1.4680759088392392e-06,0.004549979820420717,-1.548505795123667e-06,0.5
68,0.667050668651557,1.4836983514676663e-06,0.004549979120474341,-1.5238784203841506e-06,0.5
69,0.6670312502692711,1.4996518701515527e-06,0.0045499788379853275,-1.4989147099742084e-06,0.5
70,0.6670134729707196,1.5158798399639296e-06,0.004549978628956037,-1.4736213373778283e-06,0.5
71,0.6669973099269898,1.5324265183913612e-06,0.00454997832838705,-1.447986138569668e-06,0.5
72,0.666982787158574,1.5494221958789467e-06,0.004549977909543526,-1.4241733822251135e-06,0.5
73,0.6669698776914663,1.5666065494635008e-06,0.004549978080586635,-1.3980435972671403e-06,0.5
74,0.6669586230896761,1.58410681914134e-06,0.004549977784822382,-1.3715768813593599e-06,0.5
75,0.6669489809759993,1.6019064156047592e-06,0.004549977554180393,-1.3447763972163075e-06,0.5
76,0.6669409503453462,1.620050999751044e-06,0.004549977238499855,-1.3176376390644507e-06,0.5
77,0.6669345570532264,1.6384784927048205e-06,0.004549976549530413,-1.2900151880268496e-06,0.5
78,0.6669297738775968,1.657318101422334e-06,0.0045499756556909784,-1.2640607502500956e-06,0.5
79,0.6669266264515776,1.6765331409374087e-06,0.004549975305369409,-1.237793633879214e-06,0.5
80,0.6669251142818147,1.6960377777763826e-06,0.004549975545061941,-1.2091822290116738e-06,0.5
81,0.6669252102762983,1.7158877851031208e-06,0.0045499751552777285,-1.1802131574478737e-06,0.5
82,0.6669269131753333,1.7314012441538296e-06,0.004549989856887635,-1.1637370568085003e-06,0.5
83,0.6669302216694728,1.7501755594118153e-06,0.00455002273561766,-1.1747802337147562e-06,0.5
84,0.6669354034043006,1.7717207532186308e-06,0.004550033069468001,-1.1941522996883335e-06,0.5
85,0.6669427594152199,1.7931610185151215e-06,0.004550042116488243,-1.2143004710418738e-06,0.5
86,0.6669518949437887,1.8145363743116151e-06,0.004550051275353273,-1.2352431644213624e-06,0.5
87,0.6669626591169439,1.8405366776441668e-06,0.004550046154537092,-1.2461622914017311e-06,0.5
88,0.6669750507945715,1.8634241343740145e-06,0.004550022844823665,-1.2280662414543288e-06,0.5
89,0.6669891324829607,1.8838045810376513e-06,0.004550021638551099,-1.202142678047302e-06,0.5
90,0.6670048414407793,1.904516929496225e-06,0.004550021492806549,-1.17704463149515e-06,0.5
91,0.6670221764029513,1.92552474373997e-06,0.00455002216105205,-1.1550518934866361e-06,0.5
92,0.6670411553653639,1.9467835604025653e-06,0.004550022216197085,-1.128857251897486e-06,0.5
93,0.6670618262086765,1.9684575247147505e-06,0.004550022414328458,-1.1024047253282989e-06,0.5
94,0.6670841211479831,1.990481715274939e-06,0.004550022608088135,-1.0756904313957705e-06,0.5
95,0.6671080387678089,2.012918884375381e-06,0.004550023133064245,-1.0476292596317552e-06,0.5
96,0.6671335775986811,2.035698332392144e-06,0.004550022965092926,-1.017223704002923e-06,0.5
97,0.6671607361255597,2.0587636296198754e-06,0.004550022807376984,-9.885203844817171e-07,0.5
98,0.6671895368694978,2.062400717139923e-06,0.004549844611417323,-9.703668465199656e-07,0.5
99,0.6672199819444601,2.0610435859325094e-06,0.004549627293672902,-9.793052243356472e-07,0.5
100,0.6672522192730836,2.0805467759288375e-06,0.00454961348632789,-9.970265523184807e-07,0.5
101,0.6672865554998753,2.100992760301068e-06,0.004549609306194448,-1.0142262931944757e-06,0.5
102,0.6673226892166925,2.121446644309799e-06,0.004549605545902075,-1.0301707023208096e-06,0.5
103,0.6673604572955011,2.161435476466522e-06,0.004549779203525735,-1.0370841417417512e-06,0.5
104,0.6673998577917875,2.20672796995558e-06,0.004549992629757128,-1.017392599700351e-06,0.5
105,0.6674409078772855,2.2313964519682373e-06,0.00455000255608283,-9.89418116703611e-07,0.5
106,0.6674835876409164,2.2554160475252162e-06,0.004550002739088771,-9.611882211491008e-07,0.5
107,0.6675278953655559,2.279622713174945e-06,0.0045500023145038405,-9.337264619269094e-07,0.5
108,0.6675738293188153,2.3042424794006423e-06,0.004550002725790315,-9.060056228138436e-07,0.5
109,0.667621406450858,2.3289654230929107e-06,0.0045500032134205065,-8.800987845836162e-07,0.5
110,0.6676706258963775,2.354015212446825e-06,0.004550003438549563,-8.539788227679423e-07,0.5
111,0.6677215106943932,2.3794007867117276e-06,0.004550003664022007,-8.276433535625572e-07,0.5
112,0.6677740167095338,2.40498747050566e-06,0.0045500037855806304,-8.019889360610932e-07,0.5
113,0.6678281420257496,2.4310608644384503e-06,0.004550004399932923,-7.75051169665808e-07,0.5
114,0.6678839220314745,2.457666967714545e-06,0.00455000430225585,-7.457996740400929e-07,0.5
115,0.6679413181559098,2.4846550206625297e-06,0.00455000446540525,-7.162538966154486e-07,0.5
116,0.6680003283016481,2.5136961301797102e-06,0.004550096910602824,-6.929120567322755e-07,0.5
117,0.6680609503710142,2.542772912317304e-06,0.004550249084532121,-6.865329977623347e-07,0.5
118,0.6681233418912923,2.566602166087506e-06,0.00455026447020886,-6.874776909748803e-07,0.5
119,0.668187825277515,2.5897320602652486e-06,0.004550272508738385,-6.915742206903276e-07,0.5
120,0.6682540742083475,2.6126737764364805e-06,0.004550279659968065,-6.96985687143048e-07,0.5
121,0.6683220011310634,2.6338469719888736e-06,0.004550194323517725,-6.964422835320506e-07,0.5
122,0.668391567188241,2.6554637259756933e-06,0.00455005040864997,-6.780365587433224e-07,0.5
123,0.6684627507686572,2.682560636024789e-06,0.0045500422191627424,-6.525494158138301e-07,0.5
124,0.6685355693532729,2.7106591290682052e-06,0.004550041418966283,-6.241492372716097e-07,0.5
125,0.6686100012690156,2.7392437787376884e-06,0.00455004155373207,-5.946766598707854e-07,0.5
126,0.6686860442002771,2.7678929958696592e-06,0.004550042105285113,-5.665880396854561e-07,0.5
127,0.6687636957560122,2.7970251624154227e-06,0.004550042098484791,-5.374267480595663e-07,0.5
128,0.668842991480749,2.826378714537725e-06,0.004550042774986385,-5.088006146625191e-07,0.5
129,0.66892389162569,2.855926556044608e-06,0.004550043386910146,-4.806948845859083e-07,0.5
130,0.6690064135793813,2.885819739084639e-06,0.004550043840973634,-4.5234310763753177e-07,0.5
131,0.6690905543174741,2.9162256186765495e-06,0.004550044494821909,-4.2286986303707866e-07,0.5
132,0.6691762927851311,2.939022291492677e-06,0.004549941737472718,-4.0051092631276935e-07,0.5
133,0.6692636459186647,2.953967353303e-06,0.004549775410847956,-3.9711834385336433e-07,0.5
134,0.6693527103483556,2.977370743550978e-06,0.004549762091648657,-3.9813519596698655e-07,0.5
135,0.6694437572988238,3.0003989023974505e-06,0.00454975856258798,-4.0358862547495987e-07,0.5
136,0.6695365618884073,3.023652357203588e-06,0.004549756665689575,-4.0860230583472655e-07,0.5
137,0.6696310574273768,3.054777486433125e-06,0.0045498583331323615,-4.0662178448780393e-07,0.5
138,0.669727148495423,3.0939306369326403e-06,0.004550022875026017,-3.858480660756669e-07,0.5
139,0.6698248320759833,3.1248582989640286e-06,0.004550034805608828,-3.608438671420799e-07,0.5
140,0.6699241233722915,3.1564349180612797e-06,0.004550037309313843,-3.3151586786850373e-07,0.5
141,0.6700250195708701,3.1882051918508125e-06,0.00455003784675812,-3.019326687114798e-07,0.5
142,0.6701275003702724,3.220336933917878e-06,0.004550038375836113,-2.720590312366156e-07,0.5
143,0.6702315627756485,3.252361872796428e-06,0.004550039035429587,-2.436522741566805e-07,0.5
144,0.6703372037707112,3.284942741732522e-06,0.004550039774850345,-2.1411566619722325e-07,0.5
145,0.6704444767311685,3.317611193764947e-06,0.004550040084325901,-1.8517539299711674e-07,0.5
146,0.6705533228668495,3.3506561456064794e-06,0.0045500406689522824,-1.5594080953196258e-07,0.5
147,0.6706637574426457,3.384062059819115e-06,0.0045500412571807146,-1.2641275264346775e-07,0.5
148,0.6707757591641867,3.4180591510946103e-06,0.004550042123900677,-9.563438434501137e-08,0.5
149,0.6708893247816671,3.4524252277456926e-06,0.004550042697433099,-6.454732186522704e-08,0.5
150,0.6710044884588826,3.487440185701019e-06,0.004550043526207459,-3.224900375631279e-08,0.5
151,0.6711212100288204,3.5228363587158643e-06,0.004550044082767224,3.807932635879732e-10,0.5
152,0.6712394861450506,3.5581148299712594e-06,0.004550044559929401,3.167260362868518e-08,0.5
153,0.6713593134320106,3.5956472512310713e-06,0.00455007146979306,6.377408885427372e-08,0.5
154,0.6714807255429637,3.647670150908056e-06,0.004550346381154114,8.306658740853124e-08,0.5
155,0.6716037260074401,3.6771723876505294e-06,0.004550371332793091,8.895132737052336e-08,0.5
156,0.671728738374433,3.704270416005074e-06,0.004550381934029735,9.034117172124212e-08,0.5
157,0.6718554520982994,3.731181823418695e-06,0.00455038736606681,9.228889796819574e-08,0.5
158,0.6719838019969246,3.7566312864001366e-06,0.004550365797116529,9.523136457190162e-08,0.5
159,0.6721137105471789,3.7679558241521254e-06,0.004550096145748982,1.1114881168783342e-07,0.5
160,0.6722451559672716,3.801934635738746e-06,0.004550077017621368,1.3984531104238586e-07,0.5
161,0.6723781346744678,3.83864129291922e-06,0.004550071718550053,1.7318743423810902e-07,0.5
162,0.6725126619919375,3.876422013338043e-06,0.0045500716734680376,2.0781721992158e-07,0.5
163,0.6726487152806604,3.914679259242605e-06,0.0045500722476002125,2.4284379454009295e-07,0.5
164,0.6727862908313889,3.953372710618908e-06,0.004550072824472728,2.782592890326896e-07,0.5
165,0.6729253848184977,3.992482630632565e-06,0.0045500733480499655,3.1405987843680094e-07,0.5
166,0.6730659933775606,4.032043838275712e-06,0.004550073923107944,3.5026095439594236e-07,0.5
167,0.673208131610333,4.0717082026020535e-06,0.004550074361063372,3.859393411520529e-07,0.5
168,0.6733517767156857,4.111528553796262e-06,0.00455007529287328,4.2118406935465207e-07,0.5
169,0.6734969432821477,4.1517634898902145e-06,0.004550075907979423,4.568072152988379e-07,0.5
170,0.6736436282983493,4.192706102124078e-06,0.004550076018691885,4.936321281956425e-07,0.5
171,0.6737918086617305,4.233850838186726e-06,0.004550077062273684,5.30057770231629e-07,0.5
172,0.6739414803329594,4.27576945929431e-06,0.004550077814166354,5.678051591129218e-07,0.5
173,0.6740926581716342,4.318452005502849e-06,0.004550078069574415,6.068083099997068e-07,0.5
174,0.6742453191690477,4.361264147334509e-06,0.0045500784492259255,6.453153902796773e-07,0.5
175,0.6743994591955645,4.40457054082799e-06,0.004550079039528865,6.842668647033534e-07,0.5
176,0.6745550927698044,4.448024560410602e-06,0.004550079960105646,7.228235254119753e-07,0.5
177,0.674712197080881,4.491945282136812e-06,0.0045500805733039605,7.618132671805e-07,0.5
178,0.6748708056934258,4.5360063296584485e-06,0.004550081465948475,8.003622908869801e-07,0.5
179,0.6750308766403331,4.5690827537470115e-06,0.004549897933345548,8.220407523795714e-07,0.5
180,0.6751924248544471,4.601311765206617e-06,0.004549859387695499,8.34682506822837e-07,0.5
181,0.6753556939827624,4.633092432815289e-06,0.004549853265033843,8.437927473847751e-07,0.5
182,0.6755206646989447,4.662919349662786e-06,0.004549849323103584,8.481139074367761e-07,0.5
183,0.6756872040159099,4.692824457208645e-06,0.004549848928702438,8.523940536075969e-07,0.5
184,0.675855283882428,4.73460913967827e-06,0.004550033619887517,8.749288298970371e-07,0.5
185,0.6760248259430367,4.777284782164771e-06,0.004550072993775656,9.0592921866417e-07,0.5
186,0.6761958064729555,4.8215586812006e-06,0.004550079345124503,9.425752273806154e-07,0.5
187,0.6763682396570103,4.867911786110568e-06,0.0045500839144095645,9.835248677703134e-07,0.5
188,0.6765421020896539,4.915086592749418e-06,0.004550085059720876,1.0258918102135086e-06,0.5
189,0.6767174077034352,4.962392237661817e-06,0.00455008599288821,1.0678767802918543e-06,0.5
190,0.6768941333485933,5.010682856276816e-06,0.004550086858350456,1.1113852057098584e-06,0.5
191,0.6770722932001576,5.059534625218021e-06,0.0045500875574620795,1.1554267226543403e-06,0.5
192,0.6772518636071682,5.109425325411367e-06,0.0045500886170978475,1.2010010631113846e-06,0.5
193,0.6774328397789303,5.159405249344218e-06,0.004550088978015333,1.2461307673738985e-06,0.5
194,0.6776152168505005,5.21039388550193e-06,0.004550089440986594,1.2927257857286988e-06,0.5
195,0.6777990086552154,5.2620188932372976e-06,0.00455009011515658,1.3399157882565406e-06,0.5
196,0.6779841917613538,5.314270446898917e-06,0.004550090789943995,1.3877023155695057e-06,0.5
197,0.6781707611365969,5.366644157955847e-06,0.0045500912633205555,1.435075333455771e-06,0.5
198,0.6783587117836765,5.420152303781123e-06,0.0045500922758883846,1.4840604733556973e-06,0.5
199,0.6785480575801,5.474303578978379e-06,0.004550092951733364,1.5336667283483154e-06,0.5
200,0.6787387747618089,5.528590232284358e-06,0.004550093345906803,1.5828853903387952e-06,0.5
201,0.678930858189336,5.583551319610081e-06,0.004550094038097741,1.6327445420349918e-06,0.5
202,0.6791243215280035,5.639700131521153e-06,0.0045500949322769164,1.6842696487717746e-06,0.5
203,0.679319141052927,5.696539901212106e-06,0.004550095604893056,1.736461651491439e-06,0.5
204,0.679515311512438,5.754090849574568e-06,0.004550096275648752,1.7893363327692315e-06,0.5
205,0.6797128276868197,5.81289649339567e-06,0.004550097224982297,1.8439311723073004e-06,0.5
206,0.6799116843258092,5.871875235907709e-06,0.004550097629409034,1.8981956910524293e-06,0.5
207,0.6801118761484833,5.931040835172042e-06,0.004550098078288434,1.952135374572173e-06,0.5
208,0.6803134167153322,5.9909598467911e-06,0.004550098765864719,2.0067974720650027e-06,0.5
209,0.6805163009183633,6.051635425041725e-06,0.0045500994539532606,2.062190053186974e-06,0.5
210,0.6807205046433221,6.113080529246419e-06,0.00455010014128987,2.1183263202662062e-06,0.5
211,0.6809260224352125,6.175874053226949e-06,0.004550101073290969,2.1762655021628775e-06,0.5
212,0.681132848862551,6.240040308380657e-06,0.004550101957454089,2.2360343619576286e-06,0.5
